"","SampleName","Group","S","k","I","AIC","RSS"
"1","BH 1","Tongue Blue Hole",14.4292563990069,0.344846056587314,0.350117831171307,-31.7139310040643,0.000468907002609608
"2","BH 11","Tongue Blue Hole",7.05407143126587,0.12710630610052,0.373508675309051,-19.6018509102025,0.00353011058188332
"3","BH 13","Tongue Blue Hole",13.2343395360817,0.310864884160618,0.382183544309935,-22.9692068997853,0.00201396053445942
"4","BH 14","Tongue Blue Hole",7.88538502894258,0.169580561589559,0.367343413882639,-22.8604895900208,0.00205078521215146
"5","BH 15","Tongue Blue Hole",22.2719056589088,0.565427697783735,0.359257779605852,-26.4363734620267,0.00113002765377989
"6","BH 16","Tongue Blue Hole",25.8398605494166,0.639810520603099,0.379738535825547,-30.8210080401604,0.000544150005412942
"7","BH 4","Tongue Blue Hole",14.2815125352976,0.332744986252835,0.343080387617554,-28.0331523078929,0.000865984990247194
"8","BH 6","Tongue Blue Hole",7.36083942140359,0.151502419172799,0.396436360367997,-27.3531368170715,0.000969910201337287
"9","BH 7","Tongue Blue Hole",11.7138036858546,0.272098932189615,0.318470019963655,-30.996911704644,0.000528428589341515
"10","BH 8","Tongue Blue Hole",32.8819584100338,0.845432736729161,0.327561786737379,-23.282060783519,0.00191163879980598
"11","BH 9","Tongue Blue Hole",18.0709893368214,0.445598585195651,0.347308584649622,-30.1958524351094,0.000603905395035744
"12","LB 1","Opal Long Bommie",13.5398437353145,0.320157040048212,0.36922179846367,-28.7427784216025,0.000769388895225588
"13","LB 2","Opal Long Bommie",7.78164242062574,0.164695563160067,0.411905129898341,-13.2743889256766,0.0101341022235352
"14","LB 3","Opal Long Bommie",10.4864207926025,0.239151876836334,0.396149032912101,-11.762885491586,0.0130374167281406
"15","LB 5","Opal Long Bommie",19.5581886957082,0.477841218079852,0.352499256067641,-21.1479748354116,0.00272819952207949
"16","LI F10","Low Isles flat",23.2482921805223,0.590530020376313,0.296354028964832,-23.8686117035969,0.00173360386008663
"17","LI F11","Low Isles flat",76.5622633674576,2.05000153193485,0.30853042701259,-27.7856771577307,0.000902450133097201
"18","LI F12","Low Isles flat",40.759542399598,1.07673945601423,0.331174945368912,-25.4654048505408,0.00132852619893326
"19","LI F13","Low Isles flat",10.3321501734826,0.234287172564274,0.307205350668199,-17.2824152398958,0.0051960660398989
"20","LI F14","Low Isles flat",72.2958850383619,1.9284197780126,0.219986082949021,-23.2943847259979,0.00190771634176243
"21","LI F21","Low Isles flat",25.0551557252455,0.643156263061589,0.32307957001653,-31.1700964852418,0.00051339398203182
"22","LI F5","Low Isles flat",7.57164701378367,0.157512077017531,0.35018649878442,-17.3664083731666,0.00512383382576514
"23","LI F7","Low Isles flat",5.97237054708644,0.114726294712046,0.379576732103272,-26.0362073286091,0.00120796419644146
"24","LI F9","Low Isles flat",9.1128596867171,0.189409903767887,0.359575506452419,-36.111640489801,0.000225304513189758
"25","LI S1","Low Isles slope",9.53106887989379,0.216589892310982,0.353731428733127,-36.0257975928962,0.000228551148205143
"26","LI S12","Low Isles slope",1.45546261149136,0.0269270490561496,0.830281419285148,-20.7412417998989,0.00291955356283411
"27","LI S16","Low Isles slope pale",26.0307997061389,0.669990825995726,0.283859666089141,-25.1101581721561,0.00140956054618888
"28","LI S17","Low Isles slope pale",28.0339332830847,0.718189537159423,0.224285828524802,-19.1031648583393,0.00383605133263326
"29","LI S19","Low Isles slope pale",23.7915829411354,0.611645750769249,0.296948532885746,-36.8886996914163,0.000197935854733462
"30","LI S2","Low Isles slope",16.3336334512074,0.405003369161152,0.33175666119172,-32.3575726515456,0.000421209718009964
"31","LI S22","Low Isles slope",19.6273933101353,0.495083396943138,0.373430611903292,-23.9916106867833,0.00169842706579925
"32","LI S23","Low Isles slope",18.2236469880522,0.448973210616246,0.367530805316578,-20.771935072845,0.00290465658932908
"33","LI S25","Low Isles slope",21.7762304778265,0.556016822200099,0.307214074769164,-18.6394760487709,0.0041442631608446
"34","LI S27","Low Isles slope",20.5960248640686,0.528372859224531,0.343583164385186,-21.2461505313411,0.00268392227463593
"35","LI S3","Low Isles slope",16.7507474705531,0.425580912907056,0.329243100908733,-33.7795708800187,0.000332330896060385
"36","LI S4","Low Isles slope",13.5553747147424,0.319305636560332,0.35759392906108,-32.8616818761791,0.000387266330208036
"37","LI S5","Low Isles slope",11.7839254372434,0.276805404677316,0.339038286181479,-20.1904474115696,0.00320025271419239
"38","LI S7","Low Isles slope",3.12442332786112,0.0521143283595609,0.505658350985585,-20.2262154741606,0.00318123165948082
"39","LI S8","Low Isles slope",13.7434780098087,0.334933135527111,0.325795957742144,-26.8756192197212,0.00105025656140132
"40","M1","Low Isles woody flat",34.7154644600987,0.895714465626272,0.290310088632331,-32.3608533423118,0.000420979471157675
"41","MO F1","Opal Mojo crest",22.7621979927551,0.578886690414834,0.355701542044169,-30.4261203520064,0.000581167823964954
"42","MO F2","Opal Mojo crest",32.962527959611,0.844500698522398,0.351430464019122,-42.236859267323,8.11730327401562e-05
"43","MO F3","Opal Mojo crest",19.1658326889644,0.470008675553857,0.36612576498081,-29.3917885834399,0.000690508440742226
"44","MO S1","Opal Mojo slope",71.9845205341331,1.90576100477311,0.374004930283499,-25.1342314592293,0.00140391641720927
"45","MO S12","Opal Mojo slope",16.4183600971275,0.388523173392983,0.400106923714778,-33.8763349690068,0.000327014266792979
"46","MO S13","Opal Mojo slope",11.1526314506946,0.262620145180167,0.42702904004084,-12.8297814278704,0.0109135751814556
"47","MO S15","Opal Mojo slope",27.0634922951443,0.672992190549244,0.389466795065891,-40.6565587679926,0.000105632543349176
"48","MO S16","Opal Mojo slope",55.8843011335472,1.4839618589905,0.386403611444765,-31.4560799085184,0.000489497640971067
"49","MO S17","Opal Mojo slope",6.15563186731811,0.125676434112171,0.450721705589172,-12.1938337988857,0.0121338457268753
"50","MO S22","Opal Mojo slope",9.01891160486768,0.1963069658086,0.394947785038648,-11.3534049906725,0.0139582423515146
"51","MO S24","Opal Mojo slope",9.99363163926895,0.198495211085347,0.380353973515916,-43.8174730626839,6.23739331635897e-05
"52","MO S25","Opal Mojo slope",18.8166034712927,0.450718280942902,0.379041101539937,-30.0188426942593,0.000621986991421065
"53","MO S30","Opal Mojo slope",38.4740076251989,1.00083510335828,0.360888257454768,-29.2162603144483,0.000711007450303512
"54","MO S31","Opal Mojo slope",19.4575299591497,0.471829338275712,0.359691754085606,-31.190638229603,0.000511639319409058
"55","MO S32","Opal Mojo slope",5.83032495515997,0.0967998625154198,0.391708128716084,-14.5056626539471,0.00825396677617016
"56","MO S33","Opal Mojo slope",25.3454221636381,0.630149630874332,0.400576040524879,-32.3409922279695,0.000422375300345454
"57","MO S35","Opal Mojo slope",6.84559510046375,0.117625619856745,0.412405649028302,-34.2716770151566,0.000306161719748238
"58","MO S37","Opal Mojo slope",17.4992135831528,0.411621523716565,0.355486874796786,-31.122135464772,0.000517514244304937
"59","MO S39","Opal Mojo slope",35.789424663177,0.919164661126895,0.348749356623834,-26.6150938223861,0.00109686419627072
"60","MO S40","Opal Mojo slope",34.3360226728455,0.886861458040718,0.354857968289256,-24.6700019391343,0.00151685233974515
"61","RB F1","Opal Rayban flat",8.01908142704293,0.142582470680929,0.370501549846903,-32.6683909571985,0.000399945305396482
"62","RB F10","Opal Rayban flat",17.1958038232946,0.430004751013219,0.379564056385806,-17.3538653932874,0.00513455638702956
"63","RB F11","Opal Rayban flat",10.7399461531545,0.24954935086779,0.380661282680394,-14.4291408250323,0.00835990902027752
"64","RB F13","Opal Rayban flat",18.4382299026597,0.446069297445753,0.348261004711667,-20.9046245060909,0.00284112546487297
"65","RB F14","Opal Rayban flat",10.5804282614599,0.237905794677515,0.35711865324453,-18.8810458139025,0.00398072267514847
"66","RB F15","Opal Rayban flat",9.70539703092099,0.213757281232501,0.364853955525554,-26.975437415524,0.00103292864531339
"67","RB F16","Opal Rayban flat",9.34816015646765,0.181968225465886,0.357090250636825,-25.7043767913715,0.00127665266858002
"68","RB F17","Opal Rayban flat",18.3895502945417,0.451348300683465,0.36314307310679,-33.7254193393448,0.000335343843593822
"69","RB F18","Opal Rayban flat",41.8551566313759,1.07429626724,0.340452029848072,-23.6243520027866,0.00180563503165555
"70","RB F19","Opal Rayban flat",12.4221718585457,0.276710269208561,0.364649884890959,-20.1021869838691,0.00324767660902659
"71","RB F2","Opal Rayban flat",12.9876083465671,0.305325067808279,0.360263894768012,-21.8453115573532,0.00242885290151471
"72","RB F21","Opal Rayban flat",12.6927869451691,0.285711256528938,0.366191574668048,-26.8553765752558,0.00105380587368523
"73","RB F22","Opal Rayban flat",15.0407698080613,0.354225865748009,0.332809483264277,-20.0584801358154,0.00327142060330714
"74","RB F23","Opal Rayban flat",16.1309444927615,0.385317055180183,0.350010353950715,-28.6324563192992,0.000783666521187704
"75","RB F3","Opal Rayban flat",24.7398479234275,0.604427236004706,0.36653694268876,-27.5597993631455,0.000937071637656731
"76","RB F4","Opal Rayban flat",20.3647222146223,0.48623120983679,0.353534730731649,-31.4448742126358,0.000490412688800737
"77","RB F6","Opal Rayban flat",16.1354925333252,0.382884608844079,0.3595453299497,-32.827543563174,0.000389476047113577
"78","RB F9","Opal Rayban flat",29.4187887493615,0.750367820974732,0.356895540981696,-32.8204471694266,0.000389936965528974
"79","RB S1","Opal Rayban slope",2.48602859628159,0.0393866756323572,0.525482759139788,-17.1687101317816,0.00529547488104412
"80","RB S12","Opal Rayban slope",10.3826314361416,0.242666730559516,0.385851018535319,-23.226409795362,0.00192945204720507
"81","RB S14","Opal Rayban slope",20.5269647300328,0.497549345992598,0.395237733105912,-30.1889894423115,0.000604596556642943
"82","RB S15","Opal Rayban slope",5.59168782014647,0.103713194811138,0.447014934928957,-9.07868552091464,0.0203929671728337
"83","RB S18","Opal Rayban slope",8.09178642285247,0.179854074580476,0.377070716584057,-36.2891561252576,0.000218736309887245
"84","RB S19","Opal Rayban slope",12.3597630952465,0.29307853075524,0.387212653948367,-14.4662560513615,0.00830835531771763
"85","RB S2","Opal Rayban slope",18.9137354352497,0.464973383794743,0.337204730163486,-21.9090161345454,0.00240320114581945
"86","RB S20","Opal Rayban slope",14.6559184218042,0.341708669689765,0.331423950878631,-27.812877096119,0.000898368294231702
"87","RB S21","Opal Rayban slope",5.86205077272664,0.121403121930796,0.425660023464371,-21.4461115875777,0.00259594968575721
"88","RB S22","Opal Rayban slope",56.7163016751802,1.48610134862988,0.360310112424084,-32.8170699802678,0.000390156509125302
"89","RB S23","Opal Rayban slope",33.5360300376838,0.866609189248317,0.371568243650146,-34.1486918762329,0.000312502035079867
"90","RB S6","Opal Rayban slope",37.2139759256665,0.968913291592706,0.360170166175768,-29.7674783309184,0.000648598083448228
"91","RB S7","Opal Rayban slope",53.570669361692,1.39853759194105,0.374177589341006,-18.2072149631859,0.00445384835472567
"92","RB S8","Opal Rayban slope",26.8131558248552,0.679240383992395,0.357612655407369,-31.2951858450202,0.00050280142957817
"93","RB S9","Opal Rayban slope",7.41388330834552,0.147078015836382,0.394111224433344,-27.1168241483066,0.00100887278897284
"94","TB 10","Tongue Turtle Bay",18.1232552811878,0.426790193747219,0.36550070775159,-31.8867134891963,0.000455596422495796
"95","TB 11","Tongue Turtle Bay",13.2893864454542,0.304571928257801,0.347440473125668,-25.0587461278521,0.00142169050568118
"96","TB 13","Tongue Turtle Bay",19.2849591837233,0.474704443866627,0.36956085280647,-24.8637056747078,0.00146866437991162
"97","TB 14","Tongue Turtle Bay",33.4515236258186,0.854579430851849,0.38942536044162,-53.8577415513336,1.17021123576202e-05
"98","TB 15","Tongue Turtle Bay",34.8568130480182,0.884091690563336,0.377505851590367,-53.7961168660076,1.18229215298358e-05
"99","TB 2","Tongue Turtle Bay",32.7655545390421,0.840686712559296,0.38235536037566,-34.0574195637803,0.000317292173859371
"100","TB 4","Tongue Turtle Bay",11.4926801731693,0.239046693615249,0.409848130609745,-44.037544322785,6.0127596166942e-05
"101","TB 5","Tongue Turtle Bay",37.352577333456,0.965088805576245,0.390236632816905,-34.4298485661665,0.00029819616241671
"102","TB 6","Tongue Turtle Bay",19.099047803986,0.476864134891775,0.349467170378987,-46.3693303751242,4.07655718614404e-05
"103","W4","Low Isles woody flat",16.3162576900967,0.391778894149144,0.354149514610137,-30.7256146637968,0.000552870529449645
